Wavelength	BG1	BG2	BG3	BG4	BG5	BG6	BG7
190.0008	0.000925837	0.00107	0.000680673	0.000734523	0.000432224	0.000891449	0.000753507
190.00167	0.000807765	0.00107	0.000704218	0.000796571	0.000468175	0.000868471	0.000718239
190.00254	0.000699358	0.00107	0.000794176	0.000855471	0.000508441	0.000812584	0.000698703
190.00341	0.000636171	0.00106	0.000883587	0.000899748	0.000533078	0.000738997	0.000724945
190.00428	0.000618348	0.00105	0.000916368	0.000923668	0.000531131	0.000660018	0.000795922
190.00515	0.000632193	0.00104	0.000880555	0.000929967	0.000500883	0.000592593	0.000878229
190.00602	0.000686748	0.00102	0.000800006	0.000925036	0.000441667	0.000555589	0.000927099
190.0069	0.000762935	0.00101	0.000711963	0.000908948	0.000360438	0.000531462	0.000914621
190.00777	0.000832875	0.00101	0.000646572	0.000877442	0.000282059	0.000498961	0.000847325
190.00864	0.000896669	0.00103	0.000615064	0.000834753	0.0002349	0.000479502	0.000760321
190.00951	0.000966594	0.00104	0.000610812	0.000797473	0.000217189	0.00048201	0.000690159
190.01038	0.00104	0.00103	0.000621902	0.000781575	0.000252315	0.000488754	0.000648851
190.01125	0.0011	0.00101	0.000638573	0.000783232	0.000349452	0.000488003	0.000627534
190.01212	0.00111	0.000962103	0.000653358	0.000785581	0.000471216	0.000478775	0.000617671
190.01299	0.00106	0.000916503	0.00066559	0.000785257	0.000588903	0.000517877	0.000614914
190.01386	0.000967574	0.000885632	0.00068585	0.000792902	0.000682085	0.000620757	0.000620009
190.01473	0.000861259	0.000880848	0.00071993	0.000804586	0.000741838	0.000735635	0.000640508
190.0156	0.000764179	0.000901178	0.000751185	0.000799746	0.000766873	0.000809297	0.000676883
190.01647	0.000696181	0.000929597	0.000758042	0.00077299	0.000763745	0.000826672	0.000719992
190.01734	0.000668901	0.000942181	0.000734482	0.000741856	0.00075203	0.000805973	0.000751199
190.01821	0.000680852	0.000926711	0.000689783	0.00073203	0.000753003	0.00077607	0.000750403
190.01908	0.000722765	0.000890687	0.000640412	0.000760856	0.000764515	0.000755473	0.000720328
190.01995	0.000783262	0.000850142	0.000604354	0.000828451	0.000765268	0.000749849	0.000690212
190.02082	0.000846185	0.000818071	0.000596884	0.00091689	0.000743907	0.000762355	0.000683589
190.02169	0.000889367	0.000803788	0.000628281	0.000997217	0.000704827	0.000794492	0.000693816
190.02256	0.000890045	0.000812876	0.000702475	0.00104	0.000662575	0.000838393	0.000700507
190.02343	0.000834417	0.000844556	0.000807531	0.00105	0.000634301	0.000877105	0.00069451
190.0243	0.000727324	0.000891956	0.000912499	0.00103	0.000624847	0.000896295	0.000679771
190.02517	0.000597365	0.000942329	0.000986614	0.000995035	0.000623969	0.000892583	0.000656502
190.02605	0.000491851	0.000979772	0.00102	0.000959808	0.0006167	0.000870866	0.000613636
190.02692	0.000456098	0.000993875	0.00102	0.000925362	0.000592085	0.000837748	0.000545644
190.02779	0.000506033	0.000984373	0.00102	0.000888611	0.00055658	0.000797762	0.000466337
190.02866	0.000622683	0.000955808	0.00103	0.000846891	0.000537219	0.000751583	0.000401019
190.02953	0.00076496	0.000910878	0.00104	0.000799904	0.000551961	0.000696493	0.000369442
190.0304	0.000886702	0.000853343	0.00104	0.00075006	0.0005866	0.000637367	0.000376435
190.03127	0.000956947	0.000794411	0.00101	0.000704178	0.000620924	0.000598618	0.000402953
190.03214	0.000972299	0.000750277	0.000939459	0.00066997	0.000637099	0.000605881	0.00045523
190.03301	0.000954898	0.000734596	0.000856117	0.000645979	0.00062429	0.000651288	0.000535435
190.03388	0.000936819	0.000752016	0.000777965	0.000624354	0.000593819	0.000702387	0.000619913
190.03475	0.000937887	0.000794905	0.000716039	0.000604296	0.000573429	0.000730937	0.000679517
190.03562	0.000956185	0.000850828	0.000669838	0.000591791	0.000578092	0.000720331	0.000700081
190.03649	0.000980213	0.000908792	0.000638158	0.000586406	0.000593674	0.000666234	0.000686111
190.03736	0.001	0.000956808	0.000627136	0.000576404	0.000593858	0.000585442	0.000658445
190.03823	0.00103	0.000980657	0.000652855	0.000550487	0.00056641	0.000511836	0.000644488
190.0391	0.00106	0.000968129	0.00072966	0.000513122	0.000523948	0.000476417	0.000658235
190.03998	0.00106	0.000915614	0.000847519	0.000485715	0.000492213	0.000496092	0.000694363
190.04085	0.00105	0.000831234	0.000966365	0.000489176	0.000493598	0.000539364	0.000737393
190.04172	0.00103	0.00073079	0.00104	0.000524569	0.000544458	0.000579152	0.000768294
190.04259	0.000997876	0.000633011	0.00105	0.00057473	0.000636264	0.000601878	0.000772346
190.04346	0.000967992	0.000558623	0.00101	0.000618483	0.000727653	0.000593707	0.000744906
190.04433	0.000948277	0.000515077	0.00096673	0.000641151	0.000773404	0.000551473	0.000694257
190.0452	0.000947942	0.00050277	0.000944044	0.000639664	0.000755123	0.000490188	0.000645636
190.04607	0.000960795	0.000535306	0.000948405	0.000620658	0.000691961	0.000437909	0.000634688
190.04694	0.000970083	0.000613201	0.000960197	0.000596863	0.000636557	0.000420487	0.000678475
190.04781	0.000964412	0.000713664	0.000962964	0.000583712	0.000636213	0.000446416	0.000757423
190.04868	0.000945827	0.000808489	0.000956816	0.000590164	0.000690143	0.000506852	0.000833049
190.04955	0.000925503	0.000877271	0.000948049	0.000609765	0.000768714	0.000580897	0.000877164
190.05042	0.000914739	0.000912345	0.000935555	0.000632566	0.000834473	0.000635627	0.000886631
190.05129	0.000919818	0.000917647	0.000913672	0.000661533	0.000856419	0.000651439	0.000876579
190.05217	0.000941516	0.000903515	0.00088563	0.000704973	0.000820865	0.00063937	0.000865625
190.05304	0.000975147	0.00088362	0.000869459	0.000760083	0.000738789	0.000622505	0.000864978
190.05391	0.00101	0.000874773	0.000885677	0.000816184	0.000644552	0.000614016	0.000870837
190.05478	0.00103	0.000888356	0.000937523	0.000870158	0.000578362	0.00062449	0.000867913
190.05565	0.00103	0.000915943	0.001	0.000924617	0.000560592	0.000653303	0.000845806
190.05652	0.00102	0.000938179	0.00105	0.000975162	0.000581128	0.000674185	0.000805582
190.05739	0.00102	0.00094345	0.00104	0.00101	0.000609738	0.000665342	0.000756583
190.05826	0.00103	0.000925989	0.001	0.000993978	0.00061733	0.00063847	0.000713034
190.05913	0.00106	0.000881019	0.000950303	0.000931711	0.000598361	0.000630601	0.000680413
190.06	0.00109	0.000814541	0.000914025	0.000831041	0.000575023	0.000667449	0.000644496
190.06087	0.00109	0.000751606	0.000903533	0.000722592	0.000572149	0.00073733	0.000589485
190.06174	0.00106	0.000724952	0.000923034	0.000635636	0.000590608	0.000805467	0.000520332
190.06262	0.000997462	0.000751313	0.000969687	0.00057863	0.000614506	0.000838432	0.000465751
190.06349	0.000909887	0.000817169	0.00103	0.000545289	0.000630173	0.000818625	0.000455735
190.06436	0.00083025	0.000888122	0.00107	0.000537583	0.000630273	0.00075258	0.000496465
190.06523	0.000791944	0.000931843	0.00109	0.000563549	0.000612975	0.000669809	0.00057011
190.0661	0.000811593	0.000935023	0.00106	0.000612372	0.000586101	0.000606475	0.00065212
190.06697	0.000862614	0.00090868	0.000994961	0.000650938	0.000564895	0.000577006	0.000718219
190.06784	0.000898881	0.000880064	0.00090067	0.000656952	0.000561337	0.000570066	0.000748739
190.06871	0.000905763	0.000875461	0.000801562	0.000636787	0.000580411	0.000580894	0.000741051
190.06958	0.000911926	0.000905619	0.000736031	0.000598782	0.000625487	0.000629091	0.000714671
190.07045	0.000949126	0.000962218	0.000731635	0.00055189	0.000694712	0.000713546	0.000699068
190.07133	0.00101	0.00103	0.00076683	0.000519301	0.000768433	0.000788444	0.000701417
190.0722	0.00107	0.00108	0.000788634	0.000515194	0.000815132	0.000818167	0.000699653
190.07307	0.00111	0.00111	0.00076396	0.00053187	0.000817246	0.00080324	0.000686413
190.07394	0.00112	0.00112	0.00069697	0.000552606	0.000787176	0.000772661	0.000685437
190.07481	0.00112	0.00114	0.000615943	0.000569292	0.000757593	0.000746623	0.000721005
190.07568	0.00112	0.00115	0.000556622	0.000587066	0.000756811	0.000709667	0.000789036
190.07655	0.00112	0.00116	0.000541985	0.000616949	0.000790821	0.000640962	0.000863093
190.07742	0.00111	0.00115	0.0005613	0.000661332	0.000844281	0.000550874	0.000914234
190.07829	0.00108	0.00112	0.00058743	0.000704061	0.000895237	0.00048199	0.000925473
190.07916	0.00102	0.00105	0.000608815	0.000730639	0.000928149	0.000469147	0.000899485
190.08004	0.000946983	0.000969291	0.000629981	0.000748251	0.000936634	0.000510327	0.000854425
190.08091	0.000886785	0.000883763	0.000653423	0.000771644	0.000920288	0.000597525	0.000809253
190.08178	0.00084827	0.000821824	0.000677622	0.000807292	0.000884446	0.000712841	0.000771186
190.08265	0.000837591	0.000794102	0.000697836	0.00085423	0.000843431	0.000818814	0.000733055
190.08352	0.000851533	0.000792676	0.000697066	0.000901594	0.000816352	0.000892137	0.000683412
190.08439	0.000878632	0.000799795	0.000658439	0.00092491	0.000810964	0.000935616	0.000621467
190.08526	0.000912515	0.000801037	0.000589585	0.000901905	0.000816358	0.000949499	0.000560278
190.08613	0.000958014	0.000794986	0.000523269	0.000833581	0.000819145	0.00092693	0.000517357
190.087	0.00102	0.000790798	0.000493893	0.00074509	0.00081896	0.000874191	0.000504688
190.08788	0.00109	0.000791465	0.000515232	0.000668282	0.000825646	0.000816861	0.000520721
190.08875	0.00114	0.000795594	0.000575405	0.000621848	0.000848962	0.000784654	0.000551883
190.08962	0.00116	0.000809069	0.000647388	0.000604872	0.000892621	0.000788958	0.00058519
190.09049	0.00113	0.000833015	0.000712841	0.000606336	0.000949557	0.000816631	0.000612028
190.09136	0.00108	0.000852228	0.00077877	0.000616952	0.001	0.000846332	0.000619307
190.09223	0.00102	0.000842681	0.000860436	0.000634511	0.00102	0.000864119	0.000590475
190.0931	0.000975878	0.000789018	0.000950235	0.000657212	0.00101	0.000864189	0.000523891
190.09397	0.00095935	0.000698066	0.00102	0.000680635	0.000967694	0.000843434	0.000444154
190.09484	0.000971482	0.0005979	0.00105	0.000705763	0.000913857	0.000801038	0.000384281
190.09572	0.000991191	0.000519055	0.00104	0.000737555	0.000874322	0.000740504	0.000352671
190.09659	0.000994768	0.000475251	0.00099095	0.000775478	0.000860794	0.00066827	0.000342188
190.09746	0.000971467	0.000467576	0.000950933	0.000814386	0.000863455	0.000591123	0.000356733
190.09833	0.00092744	0.000495523	0.000943115	0.000850226	0.000857495	0.000516576	0.000378802
190.0992	0.000882517	0.000555615	0.000963067	0.000881464	0.000819739	0.000453786	0.000395816
190.10007	0.00085948	0.000639824	0.000987601	0.000908138	0.000747217	0.000414113	0.000404872
190.10094	0.000861688	0.000737926	0.000995166	0.000928549	0.000661904	0.000408392	0.00041966
190.10181	0.000862132	0.000835837	0.000977664	0.000937253	0.00059258	0.000434338	0.000462751
190.10269	0.000828432	0.000915746	0.000940898	0.000929226	0.000548688	0.000473737	0.000527632
190.10356	0.000755724	0.000964444	0.000895946	0.000904106	0.00052274	0.000511823	0.000575086
190.10443	0.00068287	0.000980779	0.000853943	0.00086315	0.000513958	0.000550146	0.000573568
190.1053	0.000668997	0.000972624	0.000827448	0.000809193	0.000531232	0.000597978	0.000520343
190.10617	0.000711695	0.000951495	0.000823244	0.000753926	0.000574838	0.000654979	0.000435695
190.10704	0.000783206	0.000934537	0.000825292	0.000714891	0.000619617	0.000707012	0.000350099
190.10791	0.000861216	0.000937396	0.000804385	0.000701172	0.000638429	0.000740065	0.000302605
190.10878	0.000911796	0.000946366	0.000747317	0.00070754	0.000628671	0.00075027	0.000326346
190.10966	0.000909575	0.000932135	0.000665377	0.00072228	0.000606504	0.000739857	0.000396581
190.11053	0.000859423	0.000886982	0.000577744	0.000738201	0.000590544	0.000715408	0.00045948
190.1114	0.000789248	0.000823643	0.00049804	0.000755598	0.000588887	0.000690667	0.000484319
190.11227	0.000733519	0.000762867	0.000448074	0.000774182	0.000603878	0.000680075	0.000477043
190.11314	0.00071977	0.000726501	0.000452847	0.000786624	0.000640109	0.000692702	0.000483174
190.11401	0.000745888	0.000722528	0.000496721	0.000783923	0.000693197	0.000730418	0.000553537
190.11488	0.000790805	0.000736231	0.000555453	0.000763778	0.000742264	0.000786185	0.000678435
190.11576	0.000838219	0.000748	0.000618693	0.000727382	0.000763634	0.000844879	0.00080738
190.11663	0.00089121	0.00075648	0.000688438	0.000679751	0.000744834	0.000888946	0.000897705
190.1175	0.000968177	0.000770615	0.000763607	0.000645685	0.00068708	0.000906856	0.000936671
190.11837	0.00107	0.00078411	0.000831162	0.000646988	0.000613269	0.000897932	0.000940501
190.11924	0.00116	0.000782029	0.000877152	0.000672409	0.000566226	0.000870366	0.000933647
190.12011	0.0012	0.000765986	0.000893359	0.000703751	0.00056363	0.000835714	0.000926974
190.12098	0.00117	0.000759005	0.000877803	0.000735297	0.000581585	0.000803895	0.000915091
190.12185	0.00109	0.000786525	0.000839354	0.000773152	0.000596118	0.000778672	0.000888775
190.12273	0.000986203	0.000855465	0.000797354	0.000820199	0.000604847	0.00075569	0.000846113
190.1236	0.000915	0.000946061	0.000773003	0.000862288	0.000620826	0.000728432	0.000794137
190.12447	0.000890772	0.00102	0.000781319	0.00087772	0.000661231	0.000697068	0.000741377
190.12534	0.000902342	0.00103	0.000817064	0.000863478	0.000731912	0.000670765	0.000691474
190.12621	0.000916772	0.000959658	0.000845019	0.000839555	0.000816509	0.00065851	0.000651658
190.12708	0.00091106	0.000838204	0.000828024	0.000822765	0.000887397	0.000657315	0.000643657
190.12796	0.00090214	0.000711415	0.000763703	0.000813832	0.000920361	0.000655635	0.000683035
190.12883	0.000919071	0.000630816	0.000685913	0.000808162	0.000904176	0.000644369	0.000753024
190.1297	0.000961916	0.000624011	0.000632256	0.000801394	0.000847995	0.000626338	0.000817758
190.13057	0.001	0.000673311	0.000614694	0.00078744	0.00077921	0.000616381	0.00084838
190.13144	0.001	0.000735101	0.000624331	0.000760977	0.000725634	0.000626585	0.000844494
190.13231	0.000964465	0.00077638	0.000643989	0.000723855	0.000696275	0.00065741	0.000835065
190.13318	0.00090828	0.000790018	0.000654925	0.000684585	0.000679574	0.000701479	0.00083575
190.13406	0.000861264	0.000793431	0.000643799	0.000651752	0.000655117	0.000743951	0.000826156
190.13493	0.000847281	0.000810957	0.000604127	0.000631198	0.000610842	0.000771374	0.000795248
190.1358	0.000880155	0.000849983	0.000541715	0.000629213	0.000555552	0.000788006	0.000766681
190.13667	0.000957028	0.000898137	0.000486262	0.000647908	0.000514054	0.000809082	0.000772289
190.13754	0.00106	0.000941886	0.000468807	0.000670736	0.000506314	0.000845537	0.000807883
190.13841	0.00114	0.000974835	0.000492567	0.000674517	0.000527006	0.000906779	0.000841044
190.13929	0.00119	0.000996911	0.000544891	0.0006486	0.000546369	0.000989587	0.000847405
190.14016	0.00118	0.00101	0.000609911	0.000603602	0.000536498	0.00106	0.000821789
190.14103	0.00113	0.00103	0.000675418	0.000564793	0.000497056	0.00109	0.000773214
190.1419	0.00107	0.00103	0.000740579	0.000555865	0.000453185	0.00105	0.000720258
190.14277	0.00104	0.00102	0.00080233	0.000584941	0.000431843	0.000965983	0.000685846
190.14364	0.00105	0.000992451	0.000839677	0.000633873	0.00045805	0.000870051	0.000683454
190.14451	0.00109	0.000971065	0.000829788	0.000667099	0.000549294	0.000804818	0.000700031
190.14539	0.00111	0.000966207	0.000767876	0.00066464	0.000679116	0.000789663	0.000703632
190.14626	0.0011	0.000972352	0.000665764	0.000639876	0.000796697	0.000814197	0.000675794
190.14713	0.00105	0.000969381	0.000546891	0.000619243	0.000866919	0.000849105	0.000632391
190.148	0.000976876	0.000939916	0.000453779	0.000610555	0.000877715	0.000864679	0.000608685
190.14887	0.000909389	0.000883576	0.000436757	0.000604686	0.000834165	0.000846291	0.00062287
190.14974	0.000876664	0.000817752	0.000500329	0.00059162	0.000753311	0.000793856	0.000666942
190.15062	0.000886049	0.00076674	0.000628318	0.000565872	0.000657548	0.000714697	0.000718628
190.15149	0.000928097	0.000749977	0.000783152	0.000531278	0.000568768	0.000618753	0.000751038
190.15236	0.000981799	0.000770694	0.000899485	0.000499551	0.00050646	0.000519334	0.000745057
190.15323	0.00102	0.000809279	0.000924214	0.000478389	0.000491297	0.000435873	0.000700958
190.1541	0.00104	0.000840925	0.000849016	0.000481349	0.000547622	0.000391156	0.000641159
190.15498	0.00101	0.000856589	0.000710668	0.000528542	0.0006503	0.000406295	0.000600335
190.15585	0.000954809	0.000861298	0.000564873	0.000600102	0.000742683	0.000491808	0.000605662
190.15672	0.000899898	0.000860796	0.000451556	0.00064184	0.000786889	0.00062917	0.000657416
190.15759	0.000872067	0.00085721	0.000391802	0.000619613	0.000774485	0.000784286	0.000728864
190.15846	0.000884327	0.000854992	0.000408672	0.000545607	0.000726311	0.000922693	0.000788342
190.15933	0.000927722	0.000864832	0.000486895	0.000467269	0.000675981	0.00102	0.000817659
190.16021	0.000980682	0.000899098	0.000582417	0.000436449	0.000646866	0.00105	0.0008187
190.16108	0.00102	0.000960354	0.000652368	0.000474744	0.000641594	0.00101	0.000806769
190.16195	0.00105	0.00103	0.000671229	0.000568204	0.000649503	0.000929815	0.000795532
190.16282	0.00106	0.00108	0.00064544	0.00068571	0.000659987	0.000822848	0.000789758
190.16369	0.00105	0.00108	0.000614163	0.000792697	0.00066766	0.00072262	0.000789414
190.16456	0.00103	0.00101	0.00062555	0.000863586	0.000668862	0.000644111	0.000791877
190.16544	0.00101	0.000896439	0.000696479	0.000890873	0.000660829	0.000582988	0.000791177
190.16631	0.001	0.00078212	0.000800527	0.000883697	0.00064461	0.000534387	0.00078128
190.16718	0.00103	0.00071378	0.000893646	0.00085538	0.000625776	0.000515419	0.000758632
190.16805	0.00107	0.000716723	0.000938201	0.000812373	0.000612884	0.000562092	0.000721868
190.16892	0.00111	0.000777826	0.000920846	0.000753167	0.000614256	0.000655364	0.000671476
190.1698	0.0011	0.000853093	0.000858341	0.000678549	0.000634685	0.000740952	0.000611984
190.17067	0.00104	0.000903758	0.00078367	0.000604001	0.000675381	0.00078662	0.000553398
190.17154	0.000931	0.000923788	0.000721171	0.000551251	0.000734291	0.000791834	0.000505913
190.17241	0.000821775	0.000932913	0.000667614	0.000527301	0.000800253	0.000779197	0.000473564
190.17328	0.000744236	0.000951705	0.000601174	0.000525824	0.000856381	0.000773182	0.000457008
190.17416	0.000701116	0.000985557	0.000516661	0.000538968	0.000895599	0.000787611	0.000459636
190.17503	0.000662746	0.00102	0.00044425	0.000554485	0.000922299	0.000822559	0.00048245
190.1759	0.000615389	0.00103	0.000423383	0.000564249	0.000943266	0.000865084	0.000516729
190.17677	0.000568688	0.00102	0.000458595	0.000571734	0.000961481	0.00089289	0.000564223
190.17764	0.000542404	0.000994607	0.000525685	0.000583912	0.000966995	0.000886452	0.00062563
190.17852	0.000563239	0.000978952	0.000596529	0.000599842	0.000939193	0.000845792	0.000685044
190.17939	0.000651661	0.000974646	0.000645766	0.000609226	0.000870658	0.000788222	0.000723859
190.18026	0.000796835	0.000965189	0.000665008	0.00060469	0.000783783	0.000727705	0.000729868
190.18113	0.000948786	0.000930342	0.000666599	0.000591832	0.000718057	0.000666999	0.000704505
190.182	0.00105	0.000860246	0.00066539	0.000587483	0.000695632	0.000602119	0.000666106
190.18287	0.00107	0.000765656	0.000670554	0.000610163	0.000705859	0.000522964	0.000642351
190.18375	0.00104	0.000677342	0.000685565	0.000652672	0.000729499	0.000431663	0.000652005
190.18462	0.000980627	0.000630044	0.000703894	0.000685648	0.000757248	0.000345769	0.000689813
190.18549	0.000959982	0.000637729	0.000717097	0.000694722	0.000774921	0.000266399	0.000732199
190.18636	0.000981984	0.000685645	0.000723726	0.000685888	0.000765914	0.000210141	0.000757799
190.18724	0.00102	0.000752168	0.000726742	0.00067118	0.000727516	0.000211045	0.000762286
190.18811	0.00104	0.000821069	0.000733441	0.000655273	0.000670183	0.000272069	0.000758235
190.18898	0.00105	0.000873595	0.000755645	0.000631737	0.000607811	0.000363468	0.000762683
190.18985	0.00106	0.000896142	0.000802727	0.000590055	0.000551929	0.000462048	0.000781418
