Wavelength	Xsec_Nan
190.0008	0.000925837
190.00167	0.000807765
190.00254	0.000699358
190.00341	0.000636171
190.00428	0.000618348
190.00515	0.000632193
190.00602	0.000686748
190.0069	0.000762935
190.00777	0.000832875
190.00864	0.000896669
190.00951	0.000966594
190.01038	0.00104
190.01125	0.0011
190.01212	0.00111
190.01299	0.00106
190.01386	0.000967574
190.01473	0.000861259
190.0156	0.000764179
190.01647	0.000696181
190.01734	0.000668901
190.01821	0.000680852
190.01908	0.000722765
190.01995	0.000783262
190.02082	0.000846185
190.02169	0.000889367
190.02256	0.000890045
190.02343	0.000834417
190.0243	0.000727324
190.02517	0.000597365
190.02605	0.000491851
190.02692	0.000456098
190.02779	0.000506033
190.02866	0.000622683
190.02953	0.00076496
190.0304	0.000886702
190.03127	0.000956947
190.03214	0.000972299
190.03301	0.000954898
190.03388	0.000936819
190.03475	0.000937887
190.03562	0.000956185
190.03649	0.000980213
190.03736	0.001
190.03823	0.00103
190.0391	0.00106
190.03998	0.00106
190.04085	0.00105
190.04172	0.00103
190.04259	0.000997876
190.04346	0.000967992
190.04433	0.000948277
190.0452	0.000947942
190.04607	0.000960795
190.04694	0.000970083
190.04781	0.000964412
190.04868	0.000945827
190.04955	0.000925503
190.05042	0.000914739
190.05129	0.000919818
190.05217	0.000941516
190.05304	0.000975147
190.05391	0.00101
190.05478	0.00103
190.05565	0.00103
190.05652	0.00102
190.05739	0.00102
190.05826	0.00103
190.05913	0.00106
190.06	0.00109
190.06087	0.00109
190.06174	0.00106
190.06262	0.000997462
190.06349	0.000909887
190.06436	0.00083025
190.06523	0.000791944
190.0661	0.000811593
190.06697	0.000862614
190.06784	0.000898881
190.06871	0.000905763
190.06958	0.000911926
190.07045	0.000949126
190.07133	0.00101
190.0722	0.00107
190.07307	0.00111
190.07394	0.00112
190.07481	0.00112
190.07568	0.00112
190.07655	0.00112
190.07742	0.00111
190.07829	0.00108
190.07916	0.00102
190.08004	0.000946983
190.08091	0.000886785
190.08178	0.00084827
190.08265	0.000837591
190.08352	0.000851533
190.08439	0.000878632
190.08526	0.000912515
190.08613	0.000958014
190.087	0.00102
190.08788	0.00109
190.08875	0.00114
190.08962	0.00116
190.09049	0.00113
190.09136	0.00108
190.09223	0.00102
190.0931	0.000975878
190.09397	0.00095935
190.09484	0.000971482
190.09572	0.000991191
190.09659	0.000994768
190.09746	0.000971467
190.09833	0.00092744
190.0992	0.000882517
190.10007	0.00085948
190.10094	0.000861688
190.10181	0.000862132
190.10269	0.000828432
190.10356	0.000755724
190.10443	0.00068287
190.1053	0.000668997
190.10617	0.000711695
190.10704	0.000783206
190.10791	0.000861216
190.10878	0.000911796
190.10966	0.000909575
190.11053	0.000859423
190.1114	0.000789248
190.11227	0.000733519
190.11314	0.00071977
190.11401	0.000745888
190.11488	0.000790805
190.11576	0.000838219
190.11663	0.00089121
190.1175	0.000968177
190.11837	0.00107
190.11924	0.00116
190.12011	0.0012
190.12098	0.00117
190.12185	0.00109
190.12273	0.000986203
190.1236	0.000915
190.12447	0.000890772
190.12534	0.000902342
190.12621	0.000916772
190.12708	0.00091106
190.12796	0.00090214
190.12883	0.000919071
190.1297	0.000961916
190.13057	0.001
190.13144	0.001
190.13231	0.000964465
190.13318	0.00090828
190.13406	0.000861264
190.13493	0.000847281
190.1358	0.000880155
190.13667	0.000957028
190.13754	0.00106
190.13841	0.00114
190.13929	0.00119
190.14016	0.00118
190.14103	0.00113
190.1419	0.00107
190.14277	0.00104
190.14364	0.00105
190.14451	0.00109
190.14539	0.00111
190.14626	0.0011
190.14713	0.00105
190.148	0.000976876
190.14887	0.000909389
190.14974	0.000876664
190.15062	0.000886049
190.15149	0.000928097
190.15236	0.000981799
190.15323	0.00102
190.1541	0.00104
190.15498	0.00101
190.15585	0.000954809
190.15672	0.000899898
190.15759	0.000872067
190.15846	0.000884327
190.15933	0.000927722
190.16021	0.000980682
190.16108	0.00102
190.16195	0.00105
190.16282	0.00106
190.16369	0.00105
190.16456	0.00103
190.16544	0.00101
190.16631	0.001
190.16718	0.00103
190.16805	0.00107
190.16892	0.00111
190.1698	0.0011
190.17067	0.00104
190.17154	0.000931
190.17241	0.000821775
190.17328	0.000744236
190.17416	0.000701116
190.17503	0.000662746
190.1759	0.000615389
190.17677	0.000568688
190.17764	0.000542404
190.17852	0.000563239
190.17939	0.000651661
190.18026	0.000796835
190.18113	0.000948786
190.182	0.00105
190.18287	0.00107
190.18375	0.00104
190.18462	0.000980627
190.18549	0.000959982
190.18636	0.000981984
190.18724	0.00102
190.18811	0.00104
190.18898	0.00105
190.18985	0.00106
190.19072	0.00106
190.1916	0.00105
190.19247	0.00104
190.19334	0.00103
190.19421	0.00101
190.19508	0.001
190.19596	0.001
190.19683	0.00103
190.1977	0.00109
190.19857	0.00115
190.19944	0.00116
190.20032	0.00113
190.20119	0.00105
190.20206	0.00096359
190.20293	0.000906384
190.20381	0.000895406
190.20468	0.00093003
190.20555	0.000985926
190.20642	0.00103
190.20729	0.00105
190.20817	0.00104
190.20904	0.00103
190.20991	0.00102
190.21078	0.00104
190.21166	0.00109
190.21253	0.00116
190.2134	0.00121
190.21427	0.00124
190.21514	0.00123
190.21602	0.00121
190.21689	0.00118
190.21776	0.00116
190.21863	0.00113
190.21951	0.00109
190.22038	0.00103
190.22125	0.000983595
190.22212	0.000948741
190.223	0.000932337
190.22387	0.000935446
190.22474	0.000956001
190.22561	0.000986291
190.22648	0.00101
190.22736	0.00101
190.22823	0.000985493
190.2291	0.000949098
190.22997	0.000924248
190.23085	0.000924021
190.23172	0.000948879
190.23259	0.000988405
190.23346	0.00103
190.23434	0.00107
190.23521	0.00109
190.23608	0.00108
190.23695	0.00104
190.23783	0.00099159
190.2387	0.000952339
190.23957	0.000924607
190.24044	0.000915219
190.24132	0.000929522
190.24219	0.000960001
190.24306	0.000986729
190.24393	0.000991242
190.24481	0.0009693
190.24568	0.000933486
190.24655	0.000906008
190.24742	0.000901909
190.2483	0.000915234
190.24917	0.000928572
190.25004	0.000933941
190.25091	0.000939783
190.25179	0.000956405
190.25266	0.000978781
190.25353	0.000988706
190.25441	0.000974236
190.25528	0.000941277
190.25615	0.000903129
190.25702	0.000866019
190.2579	0.000831636
190.25877	0.000810396
190.25964	0.000820561
190.26051	0.000865602
190.26139	0.000930876
190.26226	0.001
190.26313	0.00106
190.26401	0.0011
190.26488	0.00111
190.26575	0.00109
190.26662	0.00105
190.2675	0.000982834
190.26837	0.00091613
190.26924	0.000862822
190.27011	0.00083335
190.27099	0.000834481
190.27186	0.000862114
190.27273	0.000899088
190.27361	0.000927681
190.27448	0.000939932
190.27535	0.000939019
190.27622	0.000936704
190.2771	0.000946817
190.27797	0.000975547
190.27884	0.00101
190.27972	0.00103
190.28059	0.00102
190.28146	0.000996303
190.28233	0.000973448
190.28321	0.000964734
190.28408	0.000968229
190.28495	0.000983133
190.28583	0.00101
190.2867	0.00106
190.28757	0.0011
190.28844	0.00113
190.28932	0.00112
190.29019	0.00108
190.29106	0.00102
190.29194	0.000971715
190.29281	0.000931876
190.29368	0.000899828
190.29456	0.000864122
190.29543	0.000821162
190.2963	0.000778307
190.29717	0.000746914
190.29805	0.000739345
190.29892	0.00076323
190.29979	0.000806798
190.30067	0.000852456
190.30154	0.000898446
190.30241	0.0009496
190.30329	0.001
190.30416	0.00104
190.30503	0.00106
190.30591	0.00106
190.30678	0.00105
190.30765	0.00101
190.30853	0.000952063
190.3094	0.000873755
190.31027	0.000795624
190.31114	0.000749436
190.31202	0.00075884
190.31289	0.000825336
190.31376	0.000931166
190.31464	0.00105
190.31551	0.00114
190.31638	0.00118
190.31726	0.00117
190.31813	0.00113
190.319	0.00106
190.31988	0.000995627
190.32075	0.000933532
190.32162	0.000871635
190.3225	0.000801942
190.32337	0.000723284
190.32424	0.000649992
190.32512	0.000611946
190.32599	0.000624219
190.32686	0.000659276
190.32774	0.000708937
190.32861	0.000780054
190.32948	0.000870054
190.33036	0.000960463
190.33123	0.00102
190.3321	0.00103
190.33298	0.00102
190.33385	0.000994464
190.33472	0.000969475
190.3356	0.000936401
190.33647	0.000895776
190.33734	0.000857831
190.33822	0.000833059
190.33909	0.000826033
190.33996	0.000838633
190.34084	0.000869335
190.34171	0.000902541
190.34258	0.000910753
190.34346	0.000880793
190.34433	0.000827532
190.3452	0.000781112
190.34608	0.000765776
190.34695	0.000788087
190.34782	0.000840463
190.3487	0.000905717
190.34957	0.000965087
190.35045	0.00101
190.35132	0.00104
190.35219	0.00105
190.35307	0.00104
190.35394	0.00102
190.35481	0.000971051
190.35569	0.000908791
190.35656	0.000852119
190.35743	0.000826143
190.35831	0.000837347
190.35918	0.000868255
190.36005	0.000896975
190.36093	0.000912459
190.3618	0.000915886
190.36268	0.000914619
190.36355	0.000915175
190.36442	0.000921292
190.3653	0.000936917
190.36617	0.000966788
190.36704	0.00101
190.36792	0.00104
190.36879	0.00104
190.36967	0.000996353
190.37054	0.00091456
190.37141	0.00083878
190.37229	0.000802309
190.37316	0.000815236
190.37403	0.000860242
190.37491	0.000908208
190.37578	0.000939549
190.37666	0.000945215
190.37753	0.000924166
190.3784	0.000885785
190.37928	0.000851245
190.38015	0.00084564
190.38102	0.000881027
190.3819	0.000943638
190.38277	0.001
190.38365	0.00102
190.38452	0.001
190.38539	0.000946893
190.38627	0.000890517
190.38714	0.000852929
190.38801	0.000838048
190.38889	0.00083367
190.38976	0.000822439
190.39064	0.000793885
190.39151	0.000751589
190.39238	0.000710696
190.39326	0.000684582
190.39413	0.000671754
190.39501	0.000660676
190.39588	0.000645021
190.39675	0.000629735
190.39763	0.000619695
190.3985	0.000601667
190.39938	0.000553861
190.40025	0.000479062
190.40112	0.000412477
190.402	0.000389814
190.40287	0.000421727
190.40375	0.000486065
190.40462	0.00055844
190.40549	0.000634499
190.40637	0.000714942
190.40724	0.000796684
190.40812	0.000877192
190.40899	0.000952797
190.40986	0.00101
190.41074	0.00105
190.41161	0.00105
190.41249	0.00103
190.41336	0.00101
190.41423	0.000994116
190.41511	0.000996822
190.41598	0.00102
190.41686	0.00104
190.41773	0.00106
190.41861	0.00108
190.41948	0.00111
190.42035	0.00111
190.42123	0.00105
190.4221	0.000941911
190.42298	0.000829792
190.42385	0.000759836
190.42472	0.000748997
190.4256	0.000793048
190.42647	0.000878064
190.42735	0.00098203
190.42822	0.00108
190.4291	0.00117
190.42997	0.00124
190.43084	0.00129
190.43172	0.0013
190.43259	0.00128
190.43347	0.00123
190.43434	0.00115
190.43522	0.00106
190.43609	0.000993181
190.43696	0.000964717
190.43784	0.000991494
190.43871	0.00106
190.43959	0.00115
190.44046	0.00123
190.44134	0.00129
190.44221	0.00129
190.44308	0.00122
190.44396	0.00109
190.44483	0.000938391
190.44571	0.000824167
190.44658	0.000764218
190.44746	0.000757815
190.44833	0.000802999
190.44921	0.00088832
190.45008	0.000992965
190.45095	0.00109
190.45183	0.00116
190.4527	0.00117
190.45358	0.00111
190.45445	0.00102
190.45533	0.000914383
190.4562	0.000847247
190.45708	0.000837306
190.45795	0.000867588
190.45883	0.000908556
190.4597	0.000932425
190.46057	0.000923323
190.46145	0.000887389
190.46232	0.000848479
190.4632	0.000829643
190.46407	0.000832174
190.46495	0.00083168
190.46582	0.000799688
190.4667	0.000732634
190.46757	0.000660915
190.46845	0.000625327
190.46932	0.00064561
190.47019	0.000720591
190.47107	0.000833198
190.47194	0.0009442
190.47282	0.00102
190.47369	0.00105
190.47457	0.00107
190.47544	0.00109
190.47632	0.00112
190.47719	0.00114
190.47807	0.00112
190.47894	0.00104
190.47982	0.000936665
190.48069	0.000845976
190.48157	0.000789859
190.48244	0.000771694
190.48331	0.000785
190.48419	0.000818915
190.48506	0.000860275
190.48594	0.00089778
190.48681	0.000925977
190.48769	0.000946465
190.48856	0.000965552
190.48944	0.000988561
190.49031	0.00101
190.49119	0.00102
190.49206	0.000999219
190.49294	0.000932467
190.49381	0.000843456
190.49469	0.000765848
190.49556	0.000716673
190.49644	0.000689804
190.49731	0.000682289
190.49819	0.000709584
190.49906	0.000782472
190.49994	0.000878811
190.50081	0.000959576
190.50169	0.000996656
190.50256	0.00098274
190.50344	0.000930941
190.50431	0.000869506
190.50519	0.000827837
190.50606	0.000814919
190.50694	0.000818246
190.50781	0.000825586
190.50869	0.000830528
190.50956	0.000826551
190.51044	0.000812989
190.51131	0.000803317
190.51219	0.000816183
190.51306	0.000859023
190.51394	0.000923356
190.51481	0.000985976
190.51569	0.00102
190.51656	0.000996089
190.51744	0.000928035
190.51831	0.000834063
190.51919	0.00074442
190.52006	0.000694381
190.52094	0.000700396
190.52181	0.000737649
190.52269	0.000771314
190.52356	0.000787623
190.52444	0.000789941
190.52531	0.000788268
190.52619	0.000794216
190.52706	0.000810815
190.52794	0.000824461
190.52881	0.000817954
190.52969	0.000792644
190.53056	0.000771179
190.53144	0.000777801
190.53231	0.00081822
190.53319	0.000876311
190.53406	0.000928468
190.53494	0.000960581
190.53581	0.000974789
190.53669	0.000985243
190.53757	0.00101
190.53844	0.00103
190.53932	0.00105
190.54019	0.00104
190.54107	0.00101
190.54194	0.000954366
190.54282	0.00089972
190.54369	0.000865079
190.54457	0.000858405
190.54544	0.000871661
190.54632	0.000887667
190.54719	0.000891967
190.54807	0.000884347
190.54894	0.000878552
190.54982	0.000887776
190.55069	0.00091053
190.55157	0.000930724
190.55245	0.00093131
190.55332	0.000909913
190.5542	0.000883526
190.55507	0.000878913
190.55595	0.000910824
190.55682	0.000966352
190.5577	0.00102
190.55857	0.00105
190.55945	0.00107
190.56032	0.00109
190.5612	0.0011
190.56208	0.00111
190.56295	0.0011
190.56383	0.00105
190.5647	0.000968179
190.56558	0.000879377
190.56645	0.000819421
190.56733	0.000815925
190.5682	0.00087114
190.56908	0.000959571
190.56995	0.00105
190.57083	0.0011
190.57171	0.00112
190.57258	0.0011
190.57346	0.00109
190.57433	0.0011
190.57521	0.00113
190.57608	0.00115
190.57696	0.00114
190.57784	0.00111
190.57871	0.00106
190.57959	0.000996938
190.58046	0.000931227
190.58134	0.000854828
190.58221	0.000783081
190.58309	0.000739259
190.58396	0.000719525
190.58484	0.000702039
190.58572	0.000674984
190.58659	0.000642361
190.58747	0.000621999
190.58834	0.000632894
190.58922	0.000678342
190.59009	0.000746852
190.59097	0.000821582
190.59185	0.00089098
190.59272	0.000951798
190.5936	0.001
190.59447	0.00104
190.59535	0.00106
190.59622	0.00106
190.5971	0.00105
190.59798	0.00104
190.59885	0.00103
190.59973	0.00101
190.6006	0.000984529
190.60148	0.000977681
190.60236	0.000995792
190.60323	0.00103
190.60411	0.00105
190.60498	0.00104
190.60586	0.000996956
190.60673	0.000948979
190.60761	0.000915979
190.60849	0.000909587
190.60936	0.000926921
190.61024	0.000955368
190.61111	0.000979524
190.61199	0.000988241
190.61287	0.000977286
190.61374	0.000951076
190.61462	0.000924381
190.61549	0.000904166
190.61637	0.000875559
190.61725	0.000831437
190.61812	0.000783139
190.619	0.000745065
190.61987	0.000725159
190.62075	0.000724828
190.62163	0.000743509
190.6225	0.000783335
190.62338	0.000842812
190.62425	0.000905305
190.62513	0.000945384
190.62601	0.000945836
190.62688	0.000908575
190.62776	0.000855862
190.62863	0.000818809
190.62951	0.000815578
190.63039	0.000842043
190.63126	0.000887813
190.63214	0.000950448
190.63302	0.00102
190.63389	0.00108
190.63477	0.00107
190.63564	0.00101
190.63652	0.000918927
190.6374	0.000851103
190.63827	0.000842403
190.63915	0.000897634
190.64002	0.00099084
190.6409	0.00109
190.64178	0.00115
190.64265	0.00118
190.64353	0.00117
190.64441	0.00115
190.64528	0.00114
190.64616	0.00113
190.64703	0.00113
190.64791	0.00111
190.64879	0.00107
190.64966	0.00104
190.65054	0.000999398
190.65142	0.000957817
190.65229	0.000913537
190.65317	0.000877272
190.65404	0.000864942
190.65492	0.000887514
190.6558	0.000939257
190.65667	0.001
190.65755	0.00105
190.65843	0.00108
190.6593	0.00107
190.66018	0.00103
190.66106	0.000962865
190.66193	0.000898598
190.66281	0.000865826
190.66368	0.000881974
190.66456	0.000945119
190.66544	0.00104
190.66631	0.00113
190.66719	0.00122
190.66807	0.00128
190.66894	0.0013
190.66982	0.00129
190.6707	0.00124
190.67157	0.00115
190.67245	0.00105
190.67333	0.000969629
190.6742	0.000910353
190.67508	0.000877543
190.67595	0.000867326
190.67683	0.000876421
190.67771	0.00090524
190.67858	0.000956037
190.67946	0.00103
190.68034	0.00111
190.68121	0.00119
190.68209	0.00126
190.68297	0.0013
190.68384	0.00132
190.68472	0.0013
190.6856	0.00124
190.68647	0.00114
190.68735	0.00103
190.68823	0.000945513
190.6891	0.000907656
190.68998	0.000905122
190.69086	0.000930784
190.69173	0.000991173
190.69261	0.00108
190.69349	0.00118
190.69436	0.00125
190.69524	0.00127
190.69612	0.00124
190.69699	0.00118
190.69787	0.00111
190.69875	0.00106
190.69962	0.00103
190.7005	0.00104
190.70138	0.00107
190.70225	0.00112
190.70313	0.00116
190.70401	0.00119
190.70488	0.00118
190.70576	0.00115
190.70664	0.0011
190.70751	0.00103
190.70839	0.000966761
190.70927	0.000912617
190.71015	0.000883163
190.71102	0.000886506
190.7119	0.000921165
190.71278	0.000976246
190.71365	0.00104
190.71453	0.00109
190.71541	0.00113
190.71628	0.00114
190.71716	0.00114
190.71804	0.00112
190.71891	0.0011
190.71979	0.00107
190.72067	0.00103
190.72155	0.000966866
190.72242	0.000881595
190.7233	0.000793294
190.72418	0.000729273
190.72505	0.000713805
190.72593	0.000750667
190.72681	0.000816583
190.72768	0.000875236
190.72856	0.000899715
190.72944	0.000886396
190.73031	0.000852644
190.73119	0.00081959
190.73207	0.000796843
190.73295	0.000786521
190.73382	0.000796846
190.7347	0.000845873
190.73558	0.000936258
190.73645	0.00104
190.73733	0.00114
190.73821	0.00118
190.73909	0.00118
190.73996	0.00112
190.74084	0.00104
190.74172	0.000951571
190.74259	0.000864701
190.74347	0.000793615
190.74435	0.000756181
190.74523	0.000764422
190.7461	0.000805348
190.74698	0.000852234
190.74786	0.000881446
190.74873	0.000877843
190.74961	0.000839185
190.75049	0.000781814
190.75137	0.000732006
190.75224	0.000699563
190.75312	0.000678327
190.754	0.000669799
190.75487	0.000679017
190.75575	0.000700534
190.75663	0.000724791
190.75751	0.000750498
190.75838	0.000784912
190.75926	0.000830262
190.76014	0.000874881
190.76102	0.000903079
190.76189	0.000907778
190.76277	0.000896484
190.76365	0.000889229
190.76452	0.000906268
190.7654	0.000951899
190.76628	0.00101
190.76716	0.00103
190.76803	0.00101
190.76891	0.000950075
190.76979	0.000866454
190.77067	0.000790475
190.77154	0.000737668
190.77242	0.000716236
190.7733	0.000728735
190.77418	0.00076945
190.77505	0.000824818
190.77593	0.000878938
190.77681	0.000919136
190.77769	0.000938024
190.77856	0.000936467
190.77944	0.000924894
190.78032	0.000917854
190.7812	0.000923651
190.78207	0.000937944
190.78295	0.000951817
190.78383	0.000967166
190.78471	0.000996616
190.78558	0.00105
190.78646	0.00111
190.78734	0.00117
190.78822	0.00121
190.78909	0.00122
190.78997	0.0012
190.79085	0.00115
190.79173	0.00108
190.7926	0.00102
190.79348	0.000969339
190.79436	0.000937878
190.79524	0.000923849
190.79611	0.000913844
190.79699	0.000896735
190.79787	0.0008822
190.79875	0.000897054
190.79962	0.000958972
190.8005	0.00105
190.80138	0.00115
190.80226	0.00121
190.80314	0.00123
190.80401	0.00122
190.80489	0.0012
190.80577	0.00117
190.80665	0.00114
190.80752	0.00112
190.8084	0.00111
190.80928	0.00109
190.81016	0.00105
190.81103	0.000992724
190.81191	0.000942788
190.81279	0.000913915
190.81367	0.000905571
190.81455	0.000909519
190.81542	0.000921877
190.8163	0.000944905
190.81718	0.00097636
